 C2H6O2 Density=1.113
 Energy(eV), Delta, Beta
  1000.  0.000261509704  3.55657212E-05
  1023.29303  0.000249996287  3.26825211E-05
  1047.12854  0.000238970228  3.00343872E-05
  1071.51929  0.000228387536  2.75802486E-05
  1096.47827  0.000218237401  2.53253529E-05
  1122.01843  0.000208509649  2.32544025E-05
  1148.15369  0.000199191723  2.13535332E-05
  1174.89758  0.000190272549  1.96077835E-05
  1202.2644  0.000181736279  1.80047882E-05
  1230.2688  0.000173572495  1.65327801E-05
  1258.92542  0.000165766935  1.51756667E-05
  1288.24963  0.000158300201  1.39228232E-05
  1318.25671  0.000151155124  1.27710691E-05
  1348.96289  0.000144322548  1.17146428E-05
  1380.38428  0.000137791692  1.07457827E-05
  1412.5376  0.000131550332  9.85696079E-06
  1445.43982  0.000125587714  9.04169246E-06
  1479.1084  0.00011989323  8.29259261E-06
  1513.56128  0.000114454218  7.60121975E-06
  1548.81665  0.000109255292  6.96503685E-06
  1584.89319  0.000104288549  6.38207393E-06
  1621.81006  9.95448645E-05  5.84777308E-06
  1659.58691  9.50147005E-05  5.35825438E-06
  1698.24377  9.06895511E-05  4.90965203E-06
  1737.80078  8.65610273E-05  4.49792969E-06
  1778.27942  8.26192118E-05  4.11894916E-06
  1819.70081  7.88548641E-05  3.77123092E-06
  1862.08716  7.52609049E-05  3.45282569E-06
  1905.46069  7.18300726E-05  3.16131991E-06
  1949.8446  6.85552368E-05  2.89443688E-06
  1995.26233  6.54295145E-05  2.65015342E-06
  2041.73804  6.24469903E-05  2.42696365E-06
  2089.29614  5.96006139E-05  2.22123572E-06
  2137.96216  5.68836622E-05  2.0327177E-06
  2187.76172  5.42905109E-05  1.86004502E-06
  2238.72119  5.18156667E-05  1.70185251E-06
  2290.86792  4.94537853E-05  1.55696227E-06
  2344.229  4.71997591E-05  1.42426802E-06
  2398.83301  4.50486405E-05  1.30273793E-06
  2454.70898  4.299586E-05  1.1914658E-06
  2511.88672  4.10368048E-05  1.08958329E-06
  2570.396  3.91672693E-05  9.96303129E-07
  2630.26807  3.73832481E-05  9.10905896E-07
  2691.53491  3.56807068E-05  8.32740682E-07
  2754.22876  3.40559964E-05  7.61186698E-07
  2818.38306  3.25055662E-05  6.95715528E-07
  2884.03149  3.10259275E-05  6.35786137E-07
  2951.20923  2.96139769E-05  5.80935648E-07
  3019.9519  2.82664732E-05  5.30766556E-07
  3090.29565  2.69805842E-05  4.84849636E-07
  3162.27759  2.57534357E-05  4.42842946E-07
  3235.93652  2.4582323E-05  4.04417051E-07
  3311.31128  2.34646559E-05  3.69269571E-07
  3388.44189  2.23980278E-05  3.37134253E-07
  3467.36865  2.13801195E-05  3.07738929E-07
  3548.13403  2.040863E-05  2.80860093E-07
  3630.78076  1.9481522E-05  2.5627358E-07
  3715.35254  1.85966619E-05  2.33796641E-07
  3801.89429  1.77521615E-05  2.13256271E-07
  3890.45166  1.694616E-05  1.94477096E-07
  3981.07202  1.61768985E-05  1.77316792E-07
  4073.80298  1.54426871E-05  1.61639164E-07
  4168.69385  1.47419141E-05  1.47333438E-07
  4265.79541  1.4073049E-05  1.34283198E-07
  4365.15869  1.34346647E-05  1.2237966E-07
  4466.83594  1.2825366E-05  1.11522013E-07
  4570.88232  1.22438014E-05  1.01620202E-07
  4677.35156  1.16887149E-05  9.25900778E-08
  4786.30127  1.11588943E-05  8.4355996E-08
  4897.78857  1.06531625E-05  7.68492256E-08
  5011.87256  1.01704618E-05  7.00049867E-08
  5128.61377  9.70970541E-06  6.37650288E-08
  5248.0752  9.26991561E-06  5.80780153E-08
  5370.31836  8.85010741E-06  5.28941229E-08
  5495.40918  8.44938404E-06  4.81691842E-08
  5623.41357  8.06687603E-06  4.38646346E-08
  5754.3999  7.70173847E-06  3.99426483E-08
  5888.43701  7.35319099E-06  3.63682418E-08
  6025.59619  7.02046145E-06  3.31119807E-08
  6165.9502  6.70285363E-06  3.0145781E-08
  6309.57373  6.39965174E-06  2.74436207E-08
  6456.54248  6.11021051E-06  2.498264E-08
  6606.93506  5.83389874E-06  2.27409149E-08
  6760.83057  5.57012299E-06  2.0699968E-08
  6918.31006  5.3183112E-06  1.88417548E-08
  7079.45801  5.07791356E-06  1.71498602E-08
  7244.35986  4.84841439E-06  1.56092668E-08
  7413.10303  4.62931439E-06  1.42074406E-08
  7585.77637  4.42014471E-06  1.29308404E-08
  7762.47168  4.22045196E-06  1.17691581E-08
  7943.2832  4.02980277E-06  1.07119789E-08
  8128.30566  3.84778787E-06  9.74987913E-09
  8317.63867  3.67401231E-06  8.87403306E-09
  8511.38086  3.50810569E-06  8.07700218E-09
  8709.63672  3.34970719E-06  7.35200034E-09
  8912.50977  3.19847686E-06  6.69238398E-09
  9120.1084  3.05408935E-06  6.09241191E-09
  9332.54297  2.91623269E-06  5.54666535E-09
  9549.92676  2.7846113E-06  5.05032416E-09
  9772.37305  2.65894369E-06  4.59890348E-09
  10000.001  2.53895792E-06  4.18841406E-09
